time[s], x, y, z, R, P, Y
0, 2.29038e-17, -0.319048, 1.69359, -3.14159, -4.87609e-20, 1.57159, 
1, 2.29038e-17, -0.319048, 1.69359, -3.14159, -4.87609e-20, 1.57159, 
2, 0.00686401, -0.317761, 1.69358, -3.12742, -0.000262733, 1.57151, 
3, 0.00189255, -0.317624, 1.69357, -3.13812, -0.00147015, 1.57143, 
4, -0.00323327, -0.318902, 1.69356, 3.13459, -0.00117123, 1.57151, 
5, -0.00867723, -0.320203, 1.69356, 3.1235, -0.000848334, 1.5716, 
6, -0.0138315, -0.321369, 1.69355, 3.11302, -0.000548874, 1.57169, 
7, -0.0192998, -0.323254, 1.69342, 3.10206, -0.000130033, 1.57157, 
8, -0.0245707, -0.324184, 1.69359, 3.09214, 0.00323191, 1.57216, 
9, -0.0300759, -0.325953, 1.69344, 3.08118, 0.00365352, 1.57202, 
10, -0.0351993, -0.327588, 1.69338, 3.07035, 0.00114114, 1.57207, 
11, -0.0408217, -0.329077, 1.69341, 3.05993, 0.00463204, 1.57247, 
12, -0.0459815, -0.330599, 1.69335, 3.0491, 0.00212075, 1.57252, 
13, -0.0518874, -0.333386, 1.69335, 3.03884, 0.00718394, 1.57311, 
14, -0.0569889, -0.334767, 1.6931, 3.02754, 0.00178306, 1.57266, 
15, -0.0626932, -0.336624, 1.69326, 3.01724, 0.00535344, 1.57358, 
16, -0.0685772, -0.339202, 1.69307, 3.00647, 0.00750798, 1.57369, 
17, -0.0740723, -0.34161, 1.69295, 2.99584, 0.00667955, 1.57397, 
18, -0.0800327, -0.344643, 1.69288, 2.98517, 0.00887663, 1.57459, 
19, -0.085301, -0.346109, 1.69267, 2.97456, 0.00661847, 1.57448, 
20, -0.0910305, -0.348189, 1.6925, 2.9639, 0.00737057, 1.57474, 
21, -0.097102, -0.351591, 1.69227, 2.9533, 0.00964838, 1.57524, 
22, -0.10275, -0.352623, 1.69222, 2.94263, 0.0104806, 1.57567, 
23, -0.108905, -0.356409, 1.69211, 2.9321, 0.0127985, 1.57668, 
24, -0.114607, -0.35783, 1.6919, 2.92154, 0.0137125, 1.57693, 
25, -0.120709, -0.361332, 1.6916, 2.91057, 0.0130867, 1.57745, 
26, -0.126842, -0.364761, 1.69128, 2.89958, 0.0124529, 1.57801, 
27, -0.132923, -0.367006, 1.69119, 2.88957, 0.0179413, 1.57909, 
28, -0.138494, -0.369118, 1.69085, 2.87883, 0.0144276, 1.57926, 
29, -0.144905, -0.372708, 1.69058, 2.86784, 0.0153638, 1.58033, 
30, -0.151292, -0.375876, 1.69023, 2.85739, 0.0194317, 1.58124, 
31, -0.157784, -0.379763, 1.68978, 2.84646, 0.0204357, 1.58216, 
32, -0.163368, -0.381241, 1.68959, 2.83626, 0.0199651, 1.58287, 
33, -0.16969, -0.384299, 1.68918, 2.82551, 0.0211043, 1.58378, 
34, -0.173357, -0.386311, 1.68886, 2.81814, 0.0144607, 1.58401, 
35, -0.171189, -0.386227, 1.68881, 2.81703, -0.016502, 1.58272, 
36, -0.16988, -0.387822, 1.68848, 2.81566, -0.0431166, 1.58161, 
37, -0.168267, -0.388754, 1.68816, 2.81396, -0.0742121, 1.58025, 
38, -0.166681, -0.390035, 1.68769, 2.81244, -0.105312, 1.57872, 
39, -0.164223, -0.388386, 1.68752, 2.81154, -0.136049, 1.57698, 
40, -0.163144, -0.390355, 1.68701, 2.80992, -0.164183, 1.57581, 
41, -0.162166, -0.392956, 1.68642, 2.80796, -0.195469, 1.57472, 
42, -0.16044, -0.393345, 1.68613, 2.80703, -0.223477, 1.5737, 
43, -0.158855, -0.394349, 1.68551, 2.8058, -0.254565, 1.57208, 
44, -0.156863, -0.394053, 1.68493, 2.80465, -0.286981, 1.57017, 
45, -0.155791, -0.395714, 1.6843, 2.80332, -0.315108, 1.5689, 
46, -0.154257, -0.396393, 1.68384, 2.80218, -0.344631, 1.56779, 
47, -0.152953, -0.397446, 1.68321, 2.80139, -0.3712, 1.56643, 
48, -0.150884, -0.396793, 1.68252, 2.80051, -0.403603, 1.56437, 
49, -0.149703, -0.398455, 1.68179, 2.79947, -0.43328, 1.56304, 
50, -0.147667, -0.39781, 1.68104, 2.79869, -0.465678, 1.56092, 
51, -0.147153, -0.400387, 1.6802, 2.7971, -0.495489, 1.55964, 
52, -0.145274, -0.400138, 1.67949, 2.79671, -0.524971, 1.55784, 
53, -0.143625, -0.400429, 1.67846, 2.79612, -0.557527, 1.55539, 
54, -0.142978, -0.402938, 1.67755, 2.79488, -0.588891, 1.55396, 
55, -0.140797, -0.401403, 1.67695, 2.79492, -0.615247, 1.55209, 
56, -0.140018, -0.403445, 1.67589, 2.79387, -0.648137, 1.55012, 
57, -0.138619, -0.403988, 1.675, 2.79333, -0.67928, 1.54814, 
58, -0.137477, -0.404788, 1.67397, 2.79324, -0.707473, 1.54574, 
59, -0.135252, -0.403371, 1.67309, 2.79335, -0.738395, 1.5432, 
60, -0.133713, -0.403419, 1.67202, 2.79317, -0.771044, 1.54046, 
61, -0.132889, -0.404924, 1.67077, 2.79277, -0.805431, 1.53749, 
62, -0.131461, -0.405256, 1.66973, 2.79321, -0.835146, 1.53479, 
63, -0.129384, -0.403719, 1.66876, 2.79398, -0.863135, 1.53171, 
64, -0.128125, -0.404162, 1.66759, 2.79435, -0.895914, 1.52839, 
65, -0.127298, -0.405546, 1.6665, 2.79475, -0.927337, 1.5254, 
66, -0.125894, -0.405519, 1.66503, 2.79644, -0.960066, 1.52044, 
67, -0.12441, -0.405198, 1.66405, 2.7978, -0.986795, 1.51707, 
68, -0.11752, -0.401729, 1.66624, 2.80002, -0.985659, 1.52718, 
69, -0.110337, -0.397332, 1.66827, 2.80232, -0.985958, 1.5368, 
70, -0.103003, -0.392874, 1.67, 2.80561, -0.986265, 1.54557, 
71, -0.097299, -0.391238, 1.67209, 2.80807, -0.98213, 1.55556, 
72, -0.091074, -0.388943, 1.67406, 2.81, -0.983897, 1.56566, 
73, -0.0843943, -0.38519, 1.67591, 2.81305, -0.981306, 1.57507, 
74, -0.0780953, -0.382089, 1.67782, 2.81544, -0.98014, 1.58493, 
75, -0.0714688, -0.378345, 1.67948, 2.81774, -0.981942, 1.59444, 
76, -0.0659997, -0.377261, 1.68157, 2.82078, -0.977827, 1.60449, 
77, -0.05945, -0.373372, 1.68318, 2.82297, -0.979646, 1.61409, 
78, -0.0536624, -0.371573, 1.68501, 2.82589, -0.978548, 1.62382, 
79, -0.0478952, -0.369704, 1.68684, 2.82883, -0.977464, 1.63354, 
80, -0.0419964, -0.367166, 1.68864, 2.83036, -0.979301, 1.64403, 
81, -0.0361743, -0.364462, 1.69039, 2.83423, -0.975327, 1.65308, 
82, -0.030406, -0.362503, 1.69204, 2.83588, -0.978654, 1.66332, 
83, -0.0242642, -0.359109, 1.69371, 2.83944, -0.976202, 1.67282, 
84, -0.0186827, -0.357136, 1.69547, 2.84243, -0.975215, 1.68253, 
85, -0.0131227, -0.355095, 1.69722, 2.84543, -0.974243, 1.69223, 
86, -0.00758488, -0.352988, 1.69896, 2.84845, -0.973287, 1.70191, 
87, -0.00175242, -0.350185, 1.7004, 2.85073, -0.975256, 1.71175, 
88, 0.00272583, -0.351661, 1.70262, 2.85455, -0.972861, 1.72136, 
89, 0.0085114, -0.348721, 1.70404, 2.85676, -0.974857, 1.73121, 
90, 0.0138895, -0.347235, 1.70579, 2.8585, -0.976842, 1.74187, 
91, 0.0195093, -0.344217, 1.7073, 2.86263, -0.974612, 1.75069, 
92, 0.0239737, -0.346328, 1.7096, 2.86517, -0.975248, 1.76133, 
93, 0.0295441, -0.343171, 1.71108, 2.86937, -0.973065, 1.77004, 
94, 0.034629, -0.343062, 1.71289, 2.86968, -0.9781, 1.78168, 
95, 0.0396522, -0.342087, 1.71473, 2.87383, -0.976005, 1.79073, 
96, 0.0449366, -0.340366, 1.71626, 2.87677, -0.976846, 1.80029, 
97, 0.0500363, -0.339297, 1.71794, 2.87852, -0.979038, 1.81076, 
98, 0.0549575, -0.339623, 1.7199, 2.88338, -0.977123, 1.81964, 
99, 0.0596256, -0.340737, 1.72199, 2.88488, -0.979418, 1.83068, 
100, 0.064778, -0.338743, 1.7236, 2.89041, -0.976161, 1.83855, 
101, 0.0666184, -0.33776, 1.724, 2.88837, -0.980484, 1.84373, 
102, 0.0663243, -0.339147, 1.72416, 2.88756, -0.981673, 1.84427, 
103, 0.0664201, -0.338995, 1.72422, 2.8898, -0.978712, 1.84299, 
104, 0.066356, -0.338962, 1.72414, 2.88785, -0.981285, 1.84405, 
105, 0.0662917, -0.339538, 1.72436, 2.88883, -0.979654, 1.84377, 
106, 0.0659974, -0.340925, 1.72452, 2.88802, -0.980844, 1.84432, 
107, 0.0664112, -0.338626, 1.72409, 2.88833, -0.980646, 1.84368, 
108, 0.0663468, -0.339202, 1.72431, 2.88931, -0.979014, 1.84341, 
109, 0.0660528, -0.34059, 1.72446, 2.8885, -0.980204, 1.84395, 
110, 0.0664663, -0.338292, 1.72404, 2.8888, -0.980006, 1.84332, 
111, 0.0664017, -0.338868, 1.72426, 2.88979, -0.978373, 1.84305, 
112, 0.0663377, -0.338834, 1.72418, 2.88784, -0.980946, 1.84411, 
113, 0.0664332, -0.338682, 1.72423, 2.89008, -0.977985, 1.84283, 
114, 0.0663693, -0.338649, 1.72415, 2.88813, -0.980558, 1.84389, 
115, 0.0664646, -0.338496, 1.72421, 2.89036, -0.977596, 1.84262, 
116, 0.0664009, -0.338463, 1.72413, 2.88841, -0.980169, 1.84368, 
117, 0.066496, -0.338311, 1.72418, 2.89065, -0.977207, 1.84241, 
118, 0.0664324, -0.338278, 1.7241, 2.8887, -0.97978, 1.84346, 
119, 0.0660429, -0.340414, 1.7245, 2.88868, -0.979595, 1.84388, 
120, 0.0664562, -0.338116, 1.72407, 2.88899, -0.979396, 1.84325, 
121, 0.0660668, -0.340252, 1.72448, 2.88897, -0.97921, 1.84366, 
122, 0.06648, -0.337954, 1.72405, 2.88928, -0.979011, 1.84303, 
123, 0.0660908, -0.34009, 1.72445, 2.88926, -0.978825, 1.84344, 
124, 0.0663454, -0.338515, 1.72419, 2.88831, -0.97995, 1.84381, 
125, 0.0664406, -0.338363, 1.72424, 2.89055, -0.976989, 1.84254, 
126, 0.0661475, -0.33975, 1.7244, 2.88974, -0.978179, 1.84308, 
127, 0.066402, -0.338176, 1.72414, 2.8888, -0.979304, 1.84345, 
128, 0.066175, -0.339573, 1.72438, 2.89004, -0.977775, 1.84286, 
129, 0.0664294, -0.337999, 1.72411, 2.88909, -0.978899, 1.84322, 
130, 0.0662025, -0.339396, 1.72435, 2.89033, -0.97737, 1.84264, 
131, 0.0664568, -0.337823, 1.72409, 2.88939, -0.978494, 1.843, 
132, 0.0660676, -0.339958, 1.72449, 2.88937, -0.978309, 1.84342, 
133, 0.0662563, -0.339062, 1.7243, 2.89081, -0.97672, 1.84227, 
134, 0.0653249, -0.337765, 1.72358, 2.88067, -0.988593, 1.84604, 
135, 0.0609037, -0.341242, 1.72293, 2.854, -1.01679, 1.85635, 
136, 0.0567593, -0.343097, 1.72226, 2.82686, -1.04321, 1.86766, 
137, 0.0527186, -0.344023, 1.7213, 2.79894, -1.06944, 1.87939, 
138, 0.0484965, -0.346296, 1.72061, 2.76951, -1.09581, 1.89322, 
139, 0.0439621, -0.348496, 1.71993, 2.73791, -1.12198, 1.90868, 
140, 0.0394991, -0.35126, 1.71915, 2.70184, -1.15103, 1.92843, 
141, 0.0348564, -0.353161, 1.71858, 2.66663, -1.17544, 1.94788, 
142, 0.0302695, -0.355614, 1.71789, 2.62572, -1.20261, 1.97283, 
143, 0.026006, -0.356461, 1.71676, 2.58415, -1.22812, 1.9983, 
144, 0.0211176, -0.359331, 1.71601, 2.52951, -1.25751, 2.03618, 
145, 0.0160148, -0.362169, 1.71545, 2.47809, -1.28117, 2.07206, 
146, 0.0110146, -0.364851, 1.71489, 2.41663, -1.30563, 2.11795, 
147, 0.00629808, -0.366532, 1.71389, 2.34356, -1.33074, 2.1749, 
148, 0.000916121, -0.369569, 1.71328, 2.25037, -1.35596, 2.25166, 
149, -0.00306058, -0.368986, 1.71184, 2.14656, -1.37847, 2.33921, 
150, -0.00883933, -0.372542, 1.7113, 2.0088, -1.40015, 2.46049, 
151, -0.0145699, -0.376087, 1.71097, 1.87298, -1.41556, 2.5816, 
152, -0.0193043, -0.377359, 1.70997, 1.67464, -1.43036, 2.76394, 
153, -0.0249875, -0.379852, 1.70907, 1.42914, -1.43994, 2.99246, 
154, -0.030745, -0.383125, 1.70858, 1.17344, -1.44142, -3.05074, 
155, -0.0354548, -0.383571, 1.70744, 0.948749, -1.43705, -2.84171, 
156, -0.0412003, -0.385959, 1.70662, 0.724825, -1.42556, -2.63406, 
157, -0.0469623, -0.388307, 1.70597, 0.552752, -1.41053, -2.47746, 
158, -0.0523701, -0.389919, 1.7051, 0.409925, -1.39235, -2.35003, 
159, -0.0583836, -0.392603, 1.70431, 0.269302, -1.36539, -2.22622, 
160, -0.0642208, -0.394593, 1.70368, 0.173472, -1.34114, -2.14611, 
161, -0.0692971, -0.395085, 1.70243, 0.0866952, -1.31324, -2.07577, 
162, -0.0750703, -0.396848, 1.70161, 0.0209386, -1.28814, -2.0253, 
163, -0.0808008, -0.398499, 1.70076, -0.0379623, -1.26091, -1.98188, 
164, -0.0866223, -0.399841, 1.69991, -0.0883814, -1.2346, -1.947, 
165, -0.0952332, -0.404164, 1.7052, 0.00758665, -1.30236, -2.03911, 
166, -0.0949316, -0.398284, 1.69653, -0.176462, -1.179, -1.88872, 
167, -0.104909, -0.405322, 1.69782, -0.21199, -1.15036, -1.86919, 
